ppm,intensity
8.390461,0.00423151
8.389056,0.00623746
8.387650,0.00811642
8.386245,0.00983009
8.384839,0.01134357
8.383434,0.01262601
8.382028,0.01365131
8.380622,0.01439856
8.379217,0.01485255
8.377811,0.01500402
8.376406,0.01484989
8.375000,0.01439329
8.373594,0.01364353
8.372189,0.01261589
8.370783,0.01133131
8.369378,0.00981595
8.367972,0.00810069
8.366566,0.00622048
8.365161,0.00421362
8.363755,0.00212099
8.362350,0.00001476
8.360944,0.00215012
8.359539,0.00424160
8.358133,0.00624657
8.356727,0.00812419
8.355322,0.00983620
8.353916,0.01134773
8.352511,0.01262798
8.351105,0.01365087
8.349699,0.01439555
8.348294,0.01484685
8.346888,0.01499559
8.345483,0.01483872
8.344077,0.01437944
8.342671,0.01362712
8.341266,0.01259708
8.339860,0.01131030
8.338455,0.00979300
8.337049,0.00807609
8.335644,0.00619455
8.334238,0.00418672
8.332832,0.00209349
8.331427,0.00004248
8.330021,0.00217768
8.328616,0.00426860
8.327210,0.00627265
8.325804,0.00814899
8.324399,0.00985941
8.322993,0.01136905
8.321588,0.01264716
8.320182,0.01366769
8.318776,0.01440986
8.317371,0.01485855
8.315965,0.01500461
8.314560,0.01484507
8.313154,0.01438318
8.311749,0.01362835
8.310343,0.01259596
8.308937,0.01130704
8.307532,0.00978787
8.306126,0.00806936
8.304721,0.00618656
8.303315,0.00417781
8.301909,0.00208404
8.300504,0.00005209
8.299098,0.00218707
8.297693,0.00427738
8.296287,0.00628045
8.294881,0.00815548
8.293476,0.00986424
8.292070,0.01137194
8.290665,0.01264785
8.289259,0.01366599
8.287854,0.01440559
8.286448,0.01485161
8.285042,0.01499495
8.283637,0.01483270
8.282231,0.01436815
8.280826,0.01361077
8.279420,0.01257599
8.278014,0.01128490
8.276609,0.00976379
8.275203,0.00804365
8.273798,0.00615954
8.272392,0.00414984
8.270986,0.00205550
8.269581,0.00008083
8.268175,0.00221561
8.266770,0.00430535
8.265364,0.00630748
8.263959,0.00818121
8.262553,0.00988835
8.261147,0.01139414
8.259742,0.01266788
8.258336,0.01368365
8.256931,0.01442073
8.255525,0.01486411
8.254119,0.01500476
8.252714,0.01483981
8.251308,0.01437264
8.249903,0.01361273
8.248497,0.01257559
8.247091,0.01128234
8.245686,0.00975933
8.244280,0.00803761
8.242875,0.00615222
8.241469,0.00414159
8.240064,0.00204669
8.238658,0.00008980
8.237252,0.00222437
8.235847,0.00431351
8.234441,0.00631467
8.233036,0.00818708
8.231630,0.00989258
8.230224,0.01139644
8.228819,0.01266800
8.227413,0.01368138
8.226008,0.01441591
8.224602,0.01485663
8.223196,0.01499458
8.221791,0.01482693
8.220385,0.01435709
8.218980,0.01359466
8.217574,0.01255515
8.216169,0.01125974
8.214763,0.00973483
8.213357,0.00801149
8.211952,0.00612481
8.210546,0.00411325
8.209141,0.00201779
8.207735,0.00011889
8.206329,0.00225324
8.204924,0.00434180
8.203518,0.00634200
8.202113,0.00821310
8.200707,0.00991697
8.199301,0.01141890
8.197896,0.01268829
8.196490,0.01369929
8.195085,0.01443128
8.193679,0.01486937
8.192274,0.01500462
8.190868,0.01483428
8.189462,0.01436181
8.188057,0.01359686
8.186651,0.01255498
8.185246,0.01125742
8.183840,0.00973063
8.182434,0.00800568
8.181029,0.00611774
8.179623,0.00410527
8.178218,0.00200926
8.176812,0.00012758
8.175406,0.00226171
8.174001,0.00434966
8.172595,0.00634888
8.171190,0.00821865
8.169784,0.00992086
8.168379,0.01142085
8.166973,0.01268805
8.165567,0.01369664
8.164162,0.01442608
8.162756,0.01486149
8.161351,0.01499403
8.159945,0.01482097
8.158539,0.01434584
8.157134,0.01357834
8.155728,0.01253409
8.154323,0.01123437
8.152917,0.00970565
8.151511,0.00797908
8.150106,0.00608985
8.148700,0.00407642
8.147295,0.00197984
8.145889,0.00015718
8.144484,0.00229112
8.143078,0.00437850
8.141672,0.00637677
8.140267,0.00824524
8.138861,0.00994585
8.137456,0.01144393
8.136050,0.01270897
8.134644,0.01371521
8.133239,0.01444212
8.131833,0.01487492
8.130428,0.01500478
8.129022,0.01482906
8.127617,0.01435133
8.126211,0.01358133
8.124805,0.01253475
8.123400,0.01123291
8.121994,0.00970234
8.120589,0.00797421
8.119183,0.00608374
8.117777,0.00406944
8.116372,0.00197235
8.114966,0.00016480
8.113561,0.00229848
8.112155,0.00438520
8.110749,0.00638246
8.109344,0.00824957
8.107938,0.00994847
8.106533,0.01144458
8.105127,0.01270739
8.103722,0.01371119
8.102316,0.01443551
8.100910,0.01486561
8.099505,0.01499272
8.098099,0.01481424
8.096694,0.01433382
8.095288,0.01356125
8.093882,0.01251225
8.092477,0.01120821
8.091071,0.00967569
8.089666,0.00794591
8.088260,0.00605411
8.086854,0.00403884
8.085449,0.00194115
8.084043,0.00019622
8.082638,0.00232973
8.081232,0.00441590
8.079827,0.00641225
8.078421,0.00827809
8.077015,0.00997541
8.075610,0.01146964
8.074204,0.01273032
8.072799,0.01373179
8.071393,0.01445364
8.069987,0.01488115
8.068582,0.01500562
8.067176,0.01482451
8.065771,0.01434152
8.064365,0.01356648
8.062959,0.01251520
8.061554,0.01120909
8.060148,0.00967474
8.058743,0.00794343
8.057337,0.00605044
8.055932,0.00403432
8.054526,0.00193617
8.053120,0.00020129
8.051715,0.00233450
8.050309,0.00441999
8.048904,0.00641528
8.047498,0.00827972
8.046092,0.00997532
8.044687,0.01146753
8.043281,0.01272595
8.041876,0.01372496
8.040470,0.01444417
8.039064,0.01486895
8.037659,0.01499065
8.036253,0.01480677
8.034848,0.01432107
8.033442,0.01354343
8.032037,0.01248972
8.030631,0.01118138
8.029225,0.00964507
8.027820,0.00791211
8.026414,0.00601777
8.025009,0.00400067
8.023603,0.00190190
8.022197,0.00023578
8.020792,0.00236884
8.019386,0.00445379
8.017981,0.00644818
8.016575,0.00831135
8.015169,0.01000538
8.013764,0.01149572
8.012358,0.01275203
8.010953,0.01374871
8.009547,0.01446545
8.008142,0.01488765
8.006736,0.01500672
8.005330,0.01482021
8.003925,0.01433195
8.002519,0.01355188
8.001114,0.01249587
7.999708,0.01118546
7.998302,0.00964735
7.996897,0.00791286
7.995491,0.00601733
7.994086,0.00399940
7.992680,0.00190017
7.991274,0.00023759
7.989869,0.00237035
7.988463,0.00445461
7.987058,0.00644794
7.985652,0.00830972
7.984247,0.01000201
7.982841,0.01149034
7.981435,0.01274439
7.980030,0.01373860
7.978624,0.01445273
7.977219,0.01487222
7.975813,0.01498852
7.974407,0.01479925
7.973002,0.01430829
7.971596,0.01352563
7.970191,0.01246721
7.968785,0.01115459
7.967379,0.00961453
7.965974,0.00787840
7.964568,0.00598156
7.963163,0.00396266
7.961757,0.00186284
7.960352,0.00027513
7.958946,0.00240769
7.957540,0.00449140
7.956135,0.00648379
7.954729,0.00834429
7.953324,0.01003497
7.951918,0.01152141
7.950512,0.01277332
7.949107,0.01376519
7.947701,0.01447681
7.946296,0.01489370
7.944890,0.01500734
7.943484,0.01481542
7.942079,0.01432188
7.940673,0.01353674
7.939268,0.01247603
7.937862,0.01116132
7.936457,0.00961943
7.935051,0.00788176
7.933645,0.00598372
7.932240,0.00396396
7.930834,0.00186366
7.929429,0.00027442
7.928023,0.00240669
7.926617,0.00448973
7.925212,0.00648109
7.923806,0.00834019
7.922401,0.01002919
7.920995,0.01151363
7.919589,0.01276330
7.918184,0.01375273
7.916778,0.01446176
7.915373,0.01487594
7.913967,0.01498684
7.912562,0.01479220
7.911156,0.01429598
7.909750,0.01350829
7.908345,0.01244518
7.906939,0.01112831
7.905534,0.00958450
7.904128,0.00784521
7.902722,0.00594588
7.901317,0.00392519
7.899911,0.00182433
7.898506,0.00031392
7.897100,0.00244599
7.895694,0.00452843
7.894289,0.00651883
7.892883,0.00837663
7.891478,0.01006400
7.890072,0.01154653
7.888667,0.01279403
7.887261,0.01378109
7.885855,0.01448760
7.884450,0.01489917
7.883044,0.01500740
7.881639,0.01481010
7.880233,0.01431129
7.878827,0.01352112
7.877422,0.01245570
7.876016,0.01113673
7.874611,0.00959109
7.873205,0.00785026
7.871799,0.00594972
7.870394,0.00392818
7.868988,0.00182684
7.867583,0.00031151
7.866177,0.00244328
7.864772,0.00452505
7.863366,0.00651441
7.861960,0.00837082
7.860555,0.01005646
7.859149,0.01153699
7.857744,0.01278225
7.856338,0.01376686
7.854932,0.01447077
7.853527,0.01487963
7.852121,0.01498511
7.850716,0.01478506
7.849310,0.01428355
7.847905,0.01349082
7.846499,0.01242299
7.845093,0.01110183
7.843688,0.00955426
7.842282,0.00781180
7.840877,0.00590995
7.839471,0.00388746
7.838065,0.00178553
7.836660,0.00035301
7.835254,0.00248459
7.833849,0.00456580
7.832443,0.00655422
7.831037,0.00840936
7.829632,0.01009340
7.828226,0.01157206
7.826821,0.01281518
7.825415,0.01379747
7.824010,0.01449889
7.822604,0.01490518
7.821198,0.01500804
7.819793,0.01480538
7.818387,0.01430133
7.816982,0.01350617
7.815576,0.01243609
7.814170,0.01111290
7.812765,0.00956355
7.811359,0.00781962
7.809954,0.00591663
7.808548,0.00389335
7.807142,0.00179101
7.805737,0.00034755
7.804331,0.00247877
7.802926,0.00455923
7.801520,0.00654654
7.800115,0.00840020
7.798709,0.01008245
7.797303,0.01155903
7.795898,0.01279983
7.794492,0.01377959
7.793087,0.01447832
7.791681,0.01488182
7.790275,0.01498184
7.788870,0.01477635
7.787464,0.01426954
7.786059,0.01347173
7.784653,0.01239916
7.783247,0.01107370
7.781842,0.00952233
7.780436,0.00777668
7.779031,0.00587230
7.777625,0.00384799
7.776220,0.00174499
7.774814,0.00039386
7.773408,0.00252499
7.772003,0.00460497
7.770597,0.00659143
7.769192,0.00844391
7.767786,0.01012466
7.766380,0.01159945
7.764975,0.01283822
7.763569,0.01381575
7.762164,0.01451211
7.760758,0.01491313
7.759352,0.01501063
7.757947,0.01480264
7.756541,0.01429339
7.755136,0.01349326
7.753730,0.01241855
7.752325,0.01109116
7.750919,0.00953814
7.749513,0.00779112
7.748108,0.00588571
7.746702,0.00386073
7.745297,0.00175743
7.743891,0.00038134
7.742485,0.00251198
7.741080,0.00459109
7.739674,0.00657633
7.738269,0.00842722
7.736863,0.01010606
7.735457,0.01157865
7.734052,0.01281499
7.732646,0.01378987
7.731241,0.01448344
7.729835,0.01488156
7.728430,0.01497613
7.727024,0.01476520
7.725618,0.01425307
7.724213,0.01345018
7.722807,0.01237289
7.721402,0.01104312
7.719996,0.00948798
7.718590,0.00773916
7.717185,0.00583226
7.715779,0.00380614
7.714374,0.00170208
7.712968,0.00043706
7.711562,0.00256770
7.710157,0.00464643
7.708751,0.00663092
7.707346,0.00848072
7.705940,0.01015816
7.704535,0.01162905
7.703129,0.01286345
7.701723,0.01383620
7.700318,0.01452747
7.698912,0.01492321
7.697507,0.01501534
7.696101,0.01480200
7.694695,0.01428754
7.693290,0.01348242
7.691884,0.01240306
7.690479,0.01107147
7.689073,0.00951475
7.687667,0.00776465
7.686262,0.00585681
7.684856,0.00383010
7.683451,0.00172583
7.682045,0.00041314
7.680640,0.00254321
7.679234,0.00462100
7.677828,0.00660418
7.676423,0.00845231
7.675017,0.01012777
7.673612,0.01159640
7.672206,0.01282828
7.670800,0.01379832
7.669395,0.01448674
7.667989,0.01487953
7.666584,0.01496866
7.665178,0.01475232
7.663772,0.01423492
7.662367,0.01342700
7.660961,0.01234500
7.659556,0.01101099
7.658150,0.00945212
7.656745,0.00770015
7.655339,0.00579079
7.653933,0.00376291
7.652528,0.00165784
7.651122,0.00048153
7.649717,0.00261165
7.648311,0.00468909
7.646905,0.00667154
7.645500,0.00851861
7.644094,0.01019269
7.642689,0.01165965
7.641283,0.01288963
7.639877,0.01385755
7.638472,0.01454372
7.637066,0.01493414
7.635661,0.01502086
7.634255,0.01480213
7.632850,0.01428242
7.631444,0.01347229
7.630038,0.01238826
7.628633,0.01105243
7.627227,0.00949202
7.625822,0.00773880
7.624416,0.00582850
7.623010,0.00380007
7.621605,0.00169481
7.620199,0.00044438
7.618794,0.00257391
7.617388,0.00465038
7.615982,0.00663151
7.614577,0.00847691
7.613171,0.01014899
7.611766,0.01161367
7.610360,0.01284112
7.608955,0.01380633
7.607549,0.01448962
7.606143,0.01487707
7.604738,0.01496079
7.603332,0.01473907
7.601927,0.01421641
7.600521,0.01340347
7.599115,0.01231680
7.597710,0.01097855
7.596304,0.00941597
7.594899,0.00766089
7.593493,0.00574906
7.592087,0.00371945
7.590682,0.00161339
7.589276,0.00052622
7.587871,0.00265579
7.586465,0.00473192
7.585060,0.00671233
7.583654,0.00855668
7.582248,0.01022738
7.580843,0.01169043
7.579437,0.01291598
7.578032,0.01387910
7.576626,0.01456014
7.575220,0.01494527
7.573815,0.01502661
7.572409,0.01480253
7.571004,0.01427759
7.569598,0.01346248
7.568192,0.01237383
7.566787,0.01103380
7.565381,0.00946972
7.563976,0.00771344
7.562570,0.00580076
7.561165,0.00377064
7.559759,0.00166446
7.558353,0.00047489
7.556948,0.00260381
7.555542,0.00467890
7.554137,0.00665790
7.552731,0.00850049
7.551325,0.01016912
7.549920,0.01162979
7.548514,0.01285273
7.547109,0.01381302
7.545703,0.01449110
7.544298,0.01487315
7.542892,0.01495137
7.541486,0.01472417
7.540081,0.01419617
7.538675,0.01337813
7.537270,0.01228670
7.535864,0.01094412
7.534458,0.00937773
7.533053,0.00761944
7.531647,0.00570507
7.530242,0.00367362
7.528836,0.00156647
7.527430,0.00057348
7.526025,0.00270260
7.524619,0.00477754
7.523214,0.00675604
7.521808,0.00859777
7.520403,0.01026524
7.518997,0.01172448
7.517591,0.01294575
7.516186,0.01390419
7.514780,0.01458028
7.513375,0.01496026
7.511969,0.01503638
7.510563,0.01480710
7.509158,0.01427711
7.507752,0.01345720
7.506347,0.01236409
7.504941,0.01102007
7.503535,0.00945251
7.502130,0.00769337
7.500724,0.00577850
7.499319,0.00374690
7.497913,0.00164000
7.496508,0.00049929
7.495102,0.00262736
7.493696,0.00470086
7.492291,0.00667752
7.490885,0.00851707
7.489480,0.01018201
7.488074,0.01163842
7.486668,0.01285660
7.485263,0.01381175
7.483857,0.01448438
7.482452,0.01486077
7.481046,0.01493324
7.479640,0.01470032
7.478235,0.01416673
7.476829,0.01334334
7.475424,0.01224689
7.474018,0.01089972
7.472613,0.00932926
7.471207,0.00756750
7.469801,0.00565031
7.468396,0.00361674
7.466990,0.00150821
7.465585,0.00063235
7.464179,0.00276132
7.462773,0.00483537
7.461368,0.00681224
7.459962,0.00865167
7.458557,0.01031622
7.457151,0.01177196
7.455745,0.01298928
7.454340,0.01394339
7.452934,0.01461485
7.451529,0.01499003
7.450123,0.01506127
7.448718,0.01482716
7.447312,0.01429249
7.445906,0.01346815
7.444501,0.01237098
7.443095,0.01102334
7.441690,0.00945271
7.440284,0.00769110
7.438878,0.00577444
7.437473,0.00374179
7.436067,0.00163460
7.434662,0.00050420
7.433256,0.00263100
7.431850,0.00470245
7.430445,0.00667631
7.429039,0.00851236
7.427634,0.01017316
7.426228,0.01162484
7.424823,0.01283781
7.423417,0.01378732
7.422011,0.01445400
7.420606,0.01482424
7.419200,0.01489049
7.417795,0.01465133
7.416389,0.01411164
7.414983,0.01328235
7.413578,0.01218036
7.412172,0.01082808
7.410767,0.00925301
7.409361,0.00748722
7.407955,0.00556665
7.406550,0.00353040
7.405144,0.00141991
7.403739,0.00072185
7.402333,0.00285128
7.400928,0.00492504
7.399522,0.00690091
7.398116,0.00873869
7.396711,0.01040096
7.395305,0.01185389
7.393900,0.01306794
7.392494,0.01401841
7.391088,0.01468597
7.389683,0.01505708
7.388277,0.01512420
7.386872,0.01488603
7.385466,0.01434746
7.384060,0.01351952
7.382655,0.01241911
7.381249,0.01106871
7.379844,0.00949588
7.378438,0.00773271
7.377033,0.00581519
7.375627,0.00378243
7.374221,0.00167591
7.372816,0.00046140
7.371410,0.00258591
7.370005,0.00465427
7.368599,0.00662426
7.367193,0.00845571
7.365788,0.01011123
7.364382,0.01155703
7.362977,0.01276357
7.361571,0.01370623
7.360165,0.01436572
7.358760,0.01472852
7.357354,0.01478719
7.355949,0.01454044
7.354543,0.01399322
7.353138,0.01315662
7.351732,0.01204757
7.350326,0.01068862
7.348921,0.00910735
7.347515,0.00733589
7.346110,0.00541024
7.344704,0.00336954
7.343298,0.00125528
7.341893,0.00088957
7.340487,0.00302141
7.339082,0.00509692
7.337676,0.00707389
7.336270,0.00891218
7.334865,0.01057444
7.333459,0.01202692
7.332054,0.01324013
7.330648,0.01418950
7.329243,0.01485580
7.327837,0.01522559
7.326431,0.01529145
7.325026,0.01505220
7.323620,0.01451285
7.322215,0.01368452
7.320809,0.01258425
7.319403,0.01123461
7.317998,0.00966326
7.316592,0.00790237
7.315187,0.00598800
7.313781,0.00395933
7.312375,0.00185786
7.310970,0.00027339
7.309564,0.00239081
7.308159,0.00445104
7.306753,0.00641191
7.305348,0.00823323
7.303942,0.00987768
7.302536,0.01131151
7.301131,0.01250526
7.299725,0.01343434
7.298320,0.01407958
7.296914,0.01442752
7.295508,0.01447078
7.294103,0.01420819
7.292697,0.01364477
7.291292,0.01279166
7.289886,0.01166588
7.288480,0.01029001
7.287075,0.00869169
7.285669,0.00690306
7.284264,0.00496016
7.282858,0.00290211
7.281453,0.00077035
7.280047,0.00139217
7.278641,0.00354194
7.277236,0.00563571
7.275830,0.00763142
7.274425,0.00948904
7.273019,0.01117141
7.271613,0.01264494
7.270208,0.01388040
7.268802,0.01485342
7.267397,0.01554504
7.265991,0.01594212
7.264585,0.01603757
7.263180,0.01583052
7.261774,0.01532638
7.260369,0.01453666
7.258963,0.01347886
7.257558,0.01217600
7.256152,0.01065630
7.254746,0.00895249
7.253341,0.00710128
7.251935,0.00514259
7.250530,0.00311876
7.249124,0.00107374
7.247718,0.00094774
7.246313,0.00290103
7.244907,0.00474240
7.243502,0.00642983
7.242096,0.00792373
7.240691,0.00918760
7.239285,0.01018851
7.237879,0.01089754
7.236474,0.01128994
7.235068,0.01134508
7.233663,0.01104605
7.232257,0.01037885
7.230851,0.00933093
7.229446,0.00788860
7.228040,0.00603277
7.226635,0.00373160
7.225229,0.00092689
7.223823,0.00249220
7.222418,0.00674533
7.221012,0.01229479
7.219607,0.02021337
7.218201,0.03340623
7.216796,0.06177794
7.215390,0.14631852
7.213984,0.24053106
7.212579,0.15231013
7.211173,0.21226124
7.209768,0.27685673
7.208362,0.38219657
7.206956,0.21726300
7.205551,0.12572373
7.204145,0.14059096
7.202740,0.27509864
7.201334,0.20546881
7.199928,0.09952284
7.198523,0.07150095
7.197117,0.06686440
7.195712,0.07551484
7.194306,0.10294359
7.192901,0.17892133
7.191495,0.43001184
7.190089,0.77225437
7.188684,0.75221293
7.187278,0.48966329
7.185873,0.18967368
7.184467,0.09874539
7.183061,0.06741812
7.181656,0.06316809
7.180250,0.09513119
7.178845,0.22686831
7.177439,0.18656299
7.176033,0.07529513
7.174628,0.04959948
7.173222,0.05750174
7.171817,0.11239536
7.170411,0.23765293
7.169006,0.30669157
7.167600,0.36029887
7.166194,0.29089070
7.164789,0.12018257
7.163383,0.05099397
7.161978,0.02768760
7.160572,0.01806114
7.159166,0.01375456
7.157761,0.01195596
7.156355,0.01148794
7.154950,0.01176965
7.153544,0.01247492
7.152138,0.01340041
7.150733,0.01440818
7.149327,0.01539856
7.147922,0.01629646
7.146516,0.01704402
7.145111,0.01759666
7.143705,0.01792069
7.142299,0.01799200
7.140894,0.01779523
7.139488,0.01732309
7.138083,0.01657593
7.136677,0.01556124
7.135271,0.01429314
7.133866,0.01279193
7.132460,0.01108339
7.131055,0.00919818
7.129649,0.00717105
7.128243,0.00504010
7.126838,0.00284592
7.125432,0.00063068
7.124027,0.00156278
7.122621,0.00369179
7.121216,0.00571483
7.119810,0.00759237
7.118404,0.00928768
7.116999,0.01076761
7.115593,0.01200331
7.114188,0.01297078
7.112782,0.01365137
7.111376,0.01403226
7.109971,0.01410661
7.108565,0.01387377
7.107160,0.01333929
7.105754,0.01251483
7.104348,0.01141788
7.102943,0.01007145
7.101537,0.00850360
7.100132,0.00674684
7.098726,0.00483754
7.097321,0.00281509
7.095915,0.00072119
7.094509,0.00140103
7.093104,0.00350789
7.091698,0.00555607
7.090293,0.00750344
7.088887,0.00930995
7.087481,0.01093844
7.086076,0.01235539
7.084670,0.01353160
7.083265,0.01444283
7.081859,0.01507020
7.080453,0.01540063
7.079048,0.01542715
7.077642,0.01514896
7.076237,0.01457147
7.074831,0.01370620
7.073426,0.01257057
7.072020,0.01118750
7.070614,0.00958494
7.069209,0.00779536
7.067803,0.00585501
7.066398,0.00380325
7.064992,0.00168169
7.063586,0.00046661
7.062181,0.00259805
7.060775,0.00466938
7.059370,0.00663854
7.057964,0.00846557
7.056558,0.01011338
7.055153,0.01154856
7.053747,0.01274197
7.052342,0.01366947
7.050936,0.01431228
7.049531,0.01465740
7.048125,0.01469795
7.046719,0.01443321
7.045314,0.01386868
7.043908,0.01301598
7.042503,0.01189258
7.041097,0.01052148
7.039691,0.00893072
7.038286,0.00715278
7.036880,0.00522401
7.035475,0.00318378
7.034069,0.00107376
7.032663,0.00106300
7.031258,0.00318285
7.029852,0.00524254
7.028447,0.00720001
7.027041,0.00901531
7.025636,0.01065138
7.024230,0.01207481
7.022824,0.01325651
7.021419,0.01417236
7.020013,0.01480361
7.018608,0.01513734
7.017202,0.01516669
7.015796,0.01489097
7.014391,0.01431577
7.012985,0.01345272
7.011580,0.01231935
7.010174,0.01093869
7.008768,0.00933881
7.007363,0.00755225
7.005957,0.00561534
7.004552,0.00356751
7.003146,0.00145042
7.001741,0.00069288
7.000335,0.00281874
6.998929,0.00488391
6.997524,0.00684637
6.996118,0.00866617
6.994713,0.01030631
6.993307,0.01173340
6.991901,0.01291843
6.990496,0.01383728
6.989090,0.01447129
6.987685,0.01480757
