ppm,intensity
8.390461,0.00000385
8.389056,0.00000386
8.387650,0.00000387
8.386245,0.00000388
8.384839,0.00000389
8.383434,0.00000389
8.382028,0.00000390
8.380622,0.00000391
8.379217,0.00000392
8.377811,0.00000393
8.376406,0.00000394
8.375000,0.00000395
8.373594,0.00000395
8.372189,0.00000396
8.370783,0.00000397
8.369378,0.00000398
8.367972,0.00000399
8.366566,0.00000400
8.365161,0.00000401
8.363755,0.00000402
8.362350,0.00000403
8.360944,0.00000404
8.359539,0.00000404
8.358133,0.00000405
8.356727,0.00000406
8.355322,0.00000407
8.353916,0.00000408
8.352511,0.00000409
8.351105,0.00000410
8.349699,0.00000411
8.348294,0.00000412
8.346888,0.00000413
8.345483,0.00000414
8.344077,0.00000415
8.342671,0.00000416
8.341266,0.00000417
8.339860,0.00000418
8.338455,0.00000418
8.337049,0.00000419
8.335644,0.00000420
8.334238,0.00000421
8.332832,0.00000422
8.331427,0.00000423
8.330021,0.00000424
8.328616,0.00000425
8.327210,0.00000426
8.325804,0.00000427
8.324399,0.00000428
8.322993,0.00000429
8.321588,0.00000430
8.320182,0.00000431
8.318776,0.00000432
8.317371,0.00000433
8.315965,0.00000434
8.314560,0.00000435
8.313154,0.00000436
8.311749,0.00000437
8.310343,0.00000438
8.308937,0.00000439
8.307532,0.00000441
8.306126,0.00000442
8.304721,0.00000443
8.303315,0.00000444
8.301909,0.00000445
8.300504,0.00000446
8.299098,0.00000447
8.297693,0.00000448
8.296287,0.00000449
8.294881,0.00000450
8.293476,0.00000451
8.292070,0.00000452
8.290665,0.00000453
8.289259,0.00000454
8.287854,0.00000456
8.286448,0.00000457
8.285042,0.00000458
8.283637,0.00000459
8.282231,0.00000460
8.280826,0.00000461
8.279420,0.00000462
8.278014,0.00000463
8.276609,0.00000464
8.275203,0.00000466
8.273798,0.00000467
8.272392,0.00000468
8.270986,0.00000469
8.269581,0.00000470
8.268175,0.00000471
8.266770,0.00000472
8.265364,0.00000474
8.263959,0.00000475
8.262553,0.00000476
8.261147,0.00000477
8.259742,0.00000478
8.258336,0.00000480
8.256931,0.00000481
8.255525,0.00000482
8.254119,0.00000483
8.252714,0.00000484
8.251308,0.00000486
8.249903,0.00000487
8.248497,0.00000488
8.247091,0.00000489
8.245686,0.00000490
8.244280,0.00000492
8.242875,0.00000493
8.241469,0.00000494
8.240064,0.00000495
8.238658,0.00000497
8.237252,0.00000498
8.235847,0.00000499
8.234441,0.00000501
8.233036,0.00000502
8.231630,0.00000503
8.230224,0.00000504
8.228819,0.00000506
8.227413,0.00000507
8.226008,0.00000508
8.224602,0.00000510
8.223196,0.00000511
8.221791,0.00000512
8.220385,0.00000514
8.218980,0.00000515
8.217574,0.00000516
8.216169,0.00000518
8.214763,0.00000519
8.213357,0.00000520
8.211952,0.00000522
8.210546,0.00000523
8.209141,0.00000524
8.207735,0.00000526
8.206329,0.00000527
8.204924,0.00000528
8.203518,0.00000530
8.202113,0.00000531
8.200707,0.00000533
8.199301,0.00000534
8.197896,0.00000535
8.196490,0.00000537
8.195085,0.00000538
8.193679,0.00000540
8.192274,0.00000541
8.190868,0.00000543
8.189462,0.00000544
8.188057,0.00000546
8.186651,0.00000547
8.185246,0.00000548
8.183840,0.00000550
8.182434,0.00000551
8.181029,0.00000553
8.179623,0.00000554
8.178218,0.00000556
8.176812,0.00000557
8.175406,0.00000559
8.174001,0.00000560
8.172595,0.00000562
8.171190,0.00000563
8.169784,0.00000565
8.168379,0.00000567
8.166973,0.00000568
8.165567,0.00000570
8.164162,0.00000571
8.162756,0.00000573
8.161351,0.00000574
8.159945,0.00000576
8.158539,0.00000578
8.157134,0.00000579
8.155728,0.00000581
8.154323,0.00000582
8.152917,0.00000584
8.151511,0.00000586
8.150106,0.00000587
8.148700,0.00000589
8.147295,0.00000591
8.145889,0.00000592
8.144484,0.00000594
8.143078,0.00000596
8.141672,0.00000597
8.140267,0.00000599
8.138861,0.00000601
8.137456,0.00000602
8.136050,0.00000604
8.134644,0.00000606
8.133239,0.00000607
8.131833,0.00000609
8.130428,0.00000611
8.129022,0.00000613
8.127617,0.00000614
8.126211,0.00000616
8.124805,0.00000618
8.123400,0.00000620
8.121994,0.00000622
8.120589,0.00000623
8.119183,0.00000625
8.117777,0.00000627
8.116372,0.00000629
8.114966,0.00000631
8.113561,0.00000632
8.112155,0.00000634
8.110749,0.00000636
8.109344,0.00000638
8.107938,0.00000640
8.106533,0.00000642
8.105127,0.00000644
8.103722,0.00000645
8.102316,0.00000647
8.100910,0.00000649
8.099505,0.00000651
8.098099,0.00000653
8.096694,0.00000655
8.095288,0.00000657
8.093882,0.00000659
8.092477,0.00000661
8.091071,0.00000663
8.089666,0.00000665
8.088260,0.00000667
8.086854,0.00000669
8.085449,0.00000671
8.084043,0.00000673
8.082638,0.00000675
8.081232,0.00000677
8.079827,0.00000679
8.078421,0.00000681
8.077015,0.00000683
8.075610,0.00000685
8.074204,0.00000687
8.072799,0.00000689
8.071393,0.00000692
8.069987,0.00000694
8.068582,0.00000696
8.067176,0.00000698
8.065771,0.00000700
8.064365,0.00000702
8.062959,0.00000704
8.061554,0.00000707
8.060148,0.00000709
8.058743,0.00000711
8.057337,0.00000713
8.055932,0.00000715
8.054526,0.00000718
8.053120,0.00000720
8.051715,0.00000722
8.050309,0.00000724
8.048904,0.00000727
8.047498,0.00000729
8.046092,0.00000731
8.044687,0.00000734
8.043281,0.00000736
8.041876,0.00000738
8.040470,0.00000741
8.039064,0.00000743
8.037659,0.00000745
8.036253,0.00000748
8.034848,0.00000750
8.033442,0.00000753
8.032037,0.00000755
8.030631,0.00000757
8.029225,0.00000760
8.027820,0.00000762
8.026414,0.00000765
8.025009,0.00000767
8.023603,0.00000770
8.022197,0.00000772
8.020792,0.00000775
8.019386,0.00000777
8.017981,0.00000780
8.016575,0.00000782
8.015169,0.00000785
8.013764,0.00000787
8.012358,0.00000790
8.010953,0.00000793
8.009547,0.00000795
8.008142,0.00000798
8.006736,0.00000801
8.005330,0.00000803
8.003925,0.00000806
8.002519,0.00000809
8.001114,0.00000811
7.999708,0.00000814
7.998302,0.00000817
7.996897,0.00000820
7.995491,0.00000822
7.994086,0.00000825
7.992680,0.00000828
7.991274,0.00000831
7.989869,0.00000833
7.988463,0.00000836
7.987058,0.00000839
7.985652,0.00000842
7.984247,0.00000845
7.982841,0.00000848
7.981435,0.00000851
7.980030,0.00000854
7.978624,0.00000857
7.977219,0.00000859
7.975813,0.00000862
7.974407,0.00000865
7.973002,0.00000868
7.971596,0.00000871
7.970191,0.00000874
7.968785,0.00000878
7.967379,0.00000881
7.965974,0.00000884
7.964568,0.00000887
7.963163,0.00000890
7.961757,0.00000893
7.960352,0.00000896
7.958946,0.00000899
7.957540,0.00000903
7.956135,0.00000906
7.954729,0.00000909
7.953324,0.00000912
7.951918,0.00000915
7.950512,0.00000919
7.949107,0.00000922
7.947701,0.00000925
7.946296,0.00000929
7.944890,0.00000932
7.943484,0.00000935
7.942079,0.00000939
7.940673,0.00000942
7.939268,0.00000946
7.937862,0.00000949
7.936457,0.00000953
7.935051,0.00000956
7.933645,0.00000960
7.932240,0.00000963
7.930834,0.00000967
7.929429,0.00000970
7.928023,0.00000974
7.926617,0.00000977
7.925212,0.00000981
7.923806,0.00000985
7.922401,0.00000988
7.920995,0.00000992
7.919589,0.00000996
7.918184,0.00000999
7.916778,0.00001003
7.915373,0.00001007
7.913967,0.00001011
7.912562,0.00001015
7.911156,0.00001018
7.909750,0.00001022
7.908345,0.00001026
7.906939,0.00001030
7.905534,0.00001034
7.904128,0.00001038
7.902722,0.00001042
7.901317,0.00001046
7.899911,0.00001050
7.898506,0.00001054
7.897100,0.00001058
7.895694,0.00001062
7.894289,0.00001066
7.892883,0.00001070
7.891478,0.00001075
7.890072,0.00001079
7.888667,0.00001083
7.887261,0.00001087
7.885855,0.00001091
7.884450,0.00001096
7.883044,0.00001100
7.881639,0.00001104
7.880233,0.00001109
7.878827,0.00001113
7.877422,0.00001118
7.876016,0.00001122
7.874611,0.00001127
7.873205,0.00001131
7.871799,0.00001136
7.870394,0.00001140
7.868988,0.00001145
7.867583,0.00001149
7.866177,0.00001154
7.864772,0.00001159
7.863366,0.00001163
7.861960,0.00001168
7.860555,0.00001173
7.859149,0.00001178
7.857744,0.00001183
7.856338,0.00001188
7.854932,0.00001192
7.853527,0.00001197
7.852121,0.00001202
7.850716,0.00001207
7.849310,0.00001212
7.847905,0.00001217
7.846499,0.00001222
7.845093,0.00001228
7.843688,0.00001233
7.842282,0.00001238
7.840877,0.00001243
7.839471,0.00001248
7.838065,0.00001254
7.836660,0.00001259
7.835254,0.00001264
7.833849,0.00001270
7.832443,0.00001275
7.831037,0.00001281
7.829632,0.00001286
7.828226,0.00001292
7.826821,0.00001297
7.825415,0.00001303
7.824010,0.00001308
7.822604,0.00001314
7.821198,0.00001320
7.819793,0.00001326
7.818387,0.00001331
7.816982,0.00001337
7.815576,0.00001343
7.814170,0.00001349
7.812765,0.00001355
7.811359,0.00001361
7.809954,0.00001367
7.808548,0.00001373
7.807142,0.00001379
7.805737,0.00001385
7.804331,0.00001392
7.802926,0.00001398
7.801520,0.00001404
7.800115,0.00001410
7.798709,0.00001417
7.797303,0.00001423
7.795898,0.00001430
7.794492,0.00001436
7.793087,0.00001443
7.791681,0.00001449
7.790275,0.00001456
7.788870,0.00001463
7.787464,0.00001469
7.786059,0.00001476
7.784653,0.00001483
7.783247,0.00001490
7.781842,0.00001497
7.780436,0.00001504
7.779031,0.00001511
7.777625,0.00001518
7.776220,0.00001525
7.774814,0.00001532
7.773408,0.00001540
7.772003,0.00001547
7.770597,0.00001554
7.769192,0.00001562
7.767786,0.00001569
7.766380,0.00001577
7.764975,0.00001584
7.763569,0.00001592
7.762164,0.00001599
7.760758,0.00001607
7.759352,0.00001615
7.757947,0.00001623
7.756541,0.00001631
7.755136,0.00001639
7.753730,0.00001647
7.752325,0.00001655
7.750919,0.00001663
7.749513,0.00001671
7.748108,0.00001679
7.746702,0.00001688
7.745297,0.00001696
7.743891,0.00001704
7.742485,0.00001713
7.741080,0.00001722
7.739674,0.00001730
7.738269,0.00001739
7.736863,0.00001748
7.735457,0.00001757
7.734052,0.00001766
7.732646,0.00001775
7.731241,0.00001784
7.729835,0.00001793
7.728430,0.00001802
7.727024,0.00001811
7.725618,0.00001821
7.724213,0.00001830
7.722807,0.00001839
7.721402,0.00001849
7.719996,0.00001859
7.718590,0.00001868
7.717185,0.00001878
7.715779,0.00001888
7.714374,0.00001898
7.712968,0.00001908
7.711562,0.00001918
7.710157,0.00001928
7.708751,0.00001939
7.707346,0.00001949
7.705940,0.00001960
7.704535,0.00001970
7.703129,0.00001981
7.701723,0.00001992
7.700318,0.00002002
7.698912,0.00002013
7.697507,0.00002024
7.696101,0.00002035
7.694695,0.00002047
7.693290,0.00002058
7.691884,0.00002069
7.690479,0.00002081
7.689073,0.00002092
7.687667,0.00002104
7.686262,0.00002116
7.684856,0.00002127
7.683451,0.00002139
7.682045,0.00002151
7.680640,0.00002164
7.679234,0.00002176
7.677828,0.00002188
7.676423,0.00002201
7.675017,0.00002213
7.673612,0.00002226
7.672206,0.00002239
7.670800,0.00002252
7.669395,0.00002265
7.667989,0.00002278
7.666584,0.00002291
7.665178,0.00002305
7.663772,0.00002318
7.662367,0.00002332
7.660961,0.00002346
7.659556,0.00002359
7.658150,0.00002373
7.656745,0.00002388
7.655339,0.00002402
7.653933,0.00002416
7.652528,0.00002431
7.651122,0.00002445
7.649717,0.00002460
7.648311,0.00002475
7.646905,0.00002490
7.645500,0.00002505
7.644094,0.00002521
7.642689,0.00002536
7.641283,0.00002552
7.639877,0.00002568
7.638472,0.00002584
7.637066,0.00002600
7.635661,0.00002616
7.634255,0.00002632
7.632850,0.00002649
7.631444,0.00002666
7.630038,0.00002682
7.628633,0.00002699
7.627227,0.00002717
7.625822,0.00002734
7.624416,0.00002751
7.623010,0.00002769
7.621605,0.00002787
7.620199,0.00002805
7.618794,0.00002823
7.617388,0.00002842
7.615982,0.00002860
7.614577,0.00002879
7.613171,0.00002898
7.611766,0.00002917
7.610360,0.00002937
7.608955,0.00002956
7.607549,0.00002976
7.606143,0.00002996
7.604738,0.00003016
7.603332,0.00003036
7.601927,0.00003057
7.600521,0.00003078
7.599115,0.00003099
7.597710,0.00003120
7.596304,0.00003141
7.594899,0.00003163
7.593493,0.00003185
7.592087,0.00003207
7.590682,0.00003229
7.589276,0.00003252
7.587871,0.00003275
7.586465,0.00003298
7.585060,0.00003321
7.583654,0.00003345
7.582248,0.00003368
7.580843,0.00003393
7.579437,0.00003417
7.578032,0.00003442
7.576626,0.00003466
7.575220,0.00003492
7.573815,0.00003517
7.572409,0.00003543
7.571004,0.00003569
7.569598,0.00003595
7.568192,0.00003622
7.566787,0.00003648
7.565381,0.00003676
7.563976,0.00003703
7.562570,0.00003731
7.561165,0.00003759
7.559759,0.00003788
7.558353,0.00003816
7.556948,0.00003845
7.555542,0.00003875
7.554137,0.00003905
7.552731,0.00003935
7.551325,0.00003965
7.549920,0.00003996
7.548514,0.00004027
7.547109,0.00004059
7.545703,0.00004091
7.544298,0.00004123
7.542892,0.00004156
7.541486,0.00004189
7.540081,0.00004223
7.538675,0.00004257
7.537270,0.00004291
7.535864,0.00004326
7.534458,0.00004361
7.533053,0.00004397
7.531647,0.00004433
7.530242,0.00004469
7.528836,0.00004506
7.527430,0.00004544
7.526025,0.00004582
7.524619,0.00004620
7.523214,0.00004659
7.521808,0.00004698
7.520403,0.00004738
7.518997,0.00004779
7.517591,0.00004820
7.516186,0.00004861
7.514780,0.00004903
7.513375,0.00004946
7.511969,0.00004989
7.510563,0.00005033
7.509158,0.00005077
7.507752,0.00005122
7.506347,0.00005167
7.504941,0.00005214
7.503535,0.00005260
7.502130,0.00005308
7.500724,0.00005356
7.499319,0.00005404
7.497913,0.00005454
7.496508,0.00005504
7.495102,0.00005555
7.493696,0.00005606
7.492291,0.00005658
7.490885,0.00005711
7.489480,0.00005765
7.488074,0.00005819
7.486668,0.00005875
7.485263,0.00005931
7.483857,0.00005987
7.482452,0.00006045
7.481046,0.00006104
7.479640,0.00006163
7.478235,0.00006223
7.476829,0.00006284
7.475424,0.00006346
7.474018,0.00006409
7.472613,0.00006473
7.471207,0.00006538
7.469801,0.00006604
7.468396,0.00006671
7.466990,0.00006739
7.465585,0.00006808
7.464179,0.00006878
7.462773,0.00006949
7.461368,0.00007022
7.459962,0.00007095
7.458557,0.00007170
7.457151,0.00007245
7.455745,0.00007322
7.454340,0.00007401
7.452934,0.00007480
7.451529,0.00007561
7.450123,0.00007643
7.448718,0.00007727
7.447312,0.00007812
7.445906,0.00007898
7.444501,0.00007986
7.443095,0.00008075
7.441690,0.00008166
7.440284,0.00008258
7.438878,0.00008352
7.437473,0.00008447
7.436067,0.00008545
7.434662,0.00008644
7.433256,0.00008744
7.431850,0.00008847
7.430445,0.00008951
7.429039,0.00009057
7.427634,0.00009165
7.426228,0.00009275
7.424823,0.00009387
7.423417,0.00009501
7.422011,0.00009617
7.420606,0.00009736
7.419200,0.00009856
7.417795,0.00009979
7.416389,0.00010104
7.414983,0.00010232
7.413578,0.00010362
7.412172,0.00010494
7.410767,0.00010629
7.409361,0.00010767
7.407955,0.00010907
7.406550,0.00011050
7.405144,0.00011197
7.403739,0.00011346
7.402333,0.00011498
7.400928,0.00011653
7.399522,0.00011811
7.398116,0.00011973
7.396711,0.00012138
7.395305,0.00012306
7.393900,0.00012478
7.392494,0.00012654
7.391088,0.00012833
7.389683,0.00013017
7.388277,0.00013204
7.386872,0.00013395
7.385466,0.00013591
7.384060,0.00013791
7.382655,0.00013996
7.381249,0.00014205
7.379844,0.00014419
7.378438,0.00014637
7.377033,0.00014861
7.375627,0.00015090
7.374221,0.00015325
7.372816,0.00015565
7.371410,0.00015811
7.370005,0.00016062
7.368599,0.00016320
7.367193,0.00016584
7.365788,0.00016855
7.364382,0.00017132
7.362977,0.00017417
7.361571,0.00017708
7.360165,0.00018007
7.358760,0.00018314
7.357354,0.00018629
7.355949,0.00018952
7.354543,0.00019284
7.353138,0.00019624
7.351732,0.00019974
7.350326,0.00020333
7.348921,0.00020702
7.347515,0.00021081
7.346110,0.00021471
7.344704,0.00021872
7.343298,0.00022285
7.341893,0.00022709
7.340487,0.00023146
7.339082,0.00023596
7.337676,0.00024059
7.336270,0.00024536
7.334865,0.00025027
7.333459,0.00025534
7.332054,0.00026056
7.330648,0.00026595
7.329243,0.00027151
7.327837,0.00027725
7.326431,0.00028317
7.325026,0.00028929
7.323620,0.00029561
7.322215,0.00030214
7.320809,0.00030890
7.319403,0.00031589
7.317998,0.00032312
7.316592,0.00033061
7.315187,0.00033836
7.313781,0.00034640
7.312375,0.00035473
7.310970,0.00036337
7.309564,0.00037233
7.308159,0.00038164
7.306753,0.00039130
7.305348,0.00040135
7.303942,0.00041179
7.302536,0.00042266
7.301131,0.00043397
7.299725,0.00044575
7.298320,0.00045802
7.296914,0.00047082
7.295508,0.00048418
7.294103,0.00049812
7.292697,0.00051269
7.291292,0.00052792
7.289886,0.00054386
7.288480,0.00056055
7.287075,0.00057804
7.285669,0.00059639
7.284264,0.00061564
7.282858,0.00063587
7.281453,0.00065714
7.280047,0.00067953
7.278641,0.00070312
7.277236,0.00072800
7.275830,0.00075427
7.274425,0.00078203
7.273019,0.00081141
7.271613,0.00084253
7.270208,0.00087555
7.268802,0.00091063
7.267397,0.00094794
7.265991,0.00098769
7.264585,0.00103010
7.263180,0.00107543
7.261774,0.00112397
7.260369,0.00117602
7.258963,0.00123197
7.257558,0.00129222
7.256152,0.00135726
7.254746,0.00142762
7.253341,0.00150393
7.251935,0.00158693
7.250530,0.00167747
7.249124,0.00177653
7.247718,0.00188530
7.246313,0.00200517
7.244907,0.00213781
7.243502,0.00228522
7.242096,0.00244986
7.240691,0.00263472
7.239285,0.00284354
7.237879,0.00308101
7.236474,0.00335309
7.235068,0.00366749
7.233663,0.00403436
7.232257,0.00446731
7.230851,0.00498497
7.229446,0.00561358
7.228040,0.00639125
7.226635,0.00737532
7.225229,0.00865615
7.223823,0.01038420
7.222418,0.01282843
7.221012,0.01651622
7.219607,0.02261960
7.218201,0.03424021
7.216796,0.06184860
7.215390,0.14867330
7.213984,0.24609812
7.212579,0.15151632
7.211173,0.21339534
7.209768,0.28061533
7.208362,0.39150644
7.206956,0.21596031
7.205551,0.11822824
7.204145,0.13386861
7.202740,0.27751763
7.201334,0.20379036
7.199928,0.09131628
7.198523,0.06232283
7.197117,0.05862604
7.195712,0.06945312
7.194306,0.10072920
7.192901,0.18452883
7.191495,0.45734208
7.190089,0.82912060
7.188684,0.81054202
7.187278,0.52988222
7.185873,0.20820973
7.184467,0.11220145
7.183061,0.08048340
7.181656,0.07790837
7.180250,0.11439884
7.178845,0.25893536
7.177439,0.21660661
7.176033,0.09688909
7.174628,0.06971500
7.173222,0.07870001
7.171817,0.13841863
7.170411,0.27429267
7.169006,0.34874790
7.167600,0.40610166
7.166194,0.32942699
7.164789,0.14238151
7.163383,0.06545099
7.161978,0.03818708
7.160572,0.02562683
7.159166,0.01872623
7.157761,0.01447419
7.156355,0.01163778
7.154950,0.00963306
7.153544,0.00815260
7.152138,0.00702114
7.150733,0.00613227
7.149327,0.00541808
7.147922,0.00483341
7.146516,0.00434716
7.145111,0.00393729
7.143705,0.00358777
7.142299,0.00328668
7.140894,0.00302501
7.139488,0.00279580
7.138083,0.00259363
7.136677,0.00241419
7.135271,0.00225402
7.133866,0.00211033
7.132460,0.00198082
7.131055,0.00186361
7.129649,0.00175710
7.128243,0.00165998
7.126838,0.00157113
7.125432,0.00148960
7.124027,0.00141456
7.122621,0.00134533
7.121216,0.00128130
7.119810,0.00122193
7.118404,0.00116677
7.116999,0.00111542
7.115593,0.00106752
7.114188,0.00102275
7.112782,0.00098086
7.111376,0.00094157
7.109971,0.00090468
7.108565,0.00086999
7.107160,0.00083733
7.105754,0.00080652
7.104348,0.00077744
7.102943,0.00074995
7.101537,0.00072393
7.100132,0.00069929
7.098726,0.00067591
7.097321,0.00065372
7.095915,0.00063263
7.094509,0.00061257
7.093104,0.00059347
7.091698,0.00057527
7.090293,0.00055792
7.088887,0.00054136
7.087481,0.00052554
7.086076,0.00051042
7.084670,0.00049595
7.083265,0.00048211
7.081859,0.00046885
7.080453,0.00045613
7.079048,0.00044394
7.077642,0.00043224
7.076237,0.00042101
7.074831,0.00041021
7.073426,0.00039983
7.072020,0.00038985
7.070614,0.00038024
7.069209,0.00037099
7.067803,0.00036208
7.066398,0.00035349
7.064992,0.00034521
7.063586,0.00033722
7.062181,0.00032951
7.060775,0.00032206
7.059370,0.00031487
7.057964,0.00030791
7.056558,0.00030119
7.055153,0.00029469
